9.792000000000000000e+03
9.712000000000000000e+03
1.035200000000000000e+04
1.035200000000000000e+04
1.038400000000000000e+04
1.051200000000000000e+04
1.075200000000000000e+04
1.124800000000000000e+04
1.184000000000000000e+04
1.169600000000000000e+04
1.161600000000000000e+04
1.155200000000000000e+04
1.160000000000000000e+04
1.203200000000000000e+04
1.308800000000000000e+04
1.297600000000000000e+04
1.321600000000000000e+04
1.353600000000000000e+04
1.393600000000000000e+04
1.411200000000000000e+04
1.416000000000000000e+04
1.275200000000000000e+04
1.350400000000000000e+04
1.334400000000000000e+04
1.297600000000000000e+04
1.107200000000000000e+04
1.123200000000000000e+04
1.152000000000000000e+04
1.148800000000000000e+04
1.081600000000000000e+04
1.028800000000000000e+04
9.872000000000000000e+03
9.472000000000000000e+03
8.336000000000000000e+03
8.752000000000000000e+03
8.592000000000000000e+03
8.240000000000000000e+03
7.968000000000000000e+03
6.608000000000000000e+03
7.520000000000000000e+03
7.216000000000000000e+03
6.976000000000000000e+03
6.416000000000000000e+03
6.128000000000000000e+03
5.760000000000000000e+03
7.408000000000000000e+03
7.312000000000000000e+03
6.208000000000000000e+03
6.224000000000000000e+03
6.464000000000000000e+03
6.672000000000000000e+03
6.928000000000000000e+03
6.688000000000000000e+03
6.016000000000000000e+03
7.184000000000000000e+03
7.312000000000000000e+03
7.376000000000000000e+03
7.296000000000000000e+03
6.992000000000000000e+03
6.784000000000000000e+03
6.416000000000000000e+03
6.528000000000000000e+03
7.392000000000000000e+03
7.072000000000000000e+03
6.928000000000000000e+03
7.104000000000000000e+03
7.472000000000000000e+03
7.872000000000000000e+03
8.032000000000000000e+03
6.528000000000000000e+03
7.632000000000000000e+03
7.408000000000000000e+03
7.056000000000000000e+03
6.592000000000000000e+03
6.464000000000000000e+03
6.688000000000000000e+03
7.168000000000000000e+03
7.536000000000000000e+03
7.856000000000000000e+03
7.760000000000000000e+03
6.928000000000000000e+03
7.888000000000000000e+03
7.696000000000000000e+03
7.488000000000000000e+03
7.248000000000000000e+03
7.072000000000000000e+03
6.944000000000000000e+03
6.960000000000000000e+03
8.000000000000000000e+03
6.192000000000000000e+03
6.368000000000000000e+03
7.088000000000000000e+03
7.504000000000000000e+03
7.712000000000000000e+03
7.808000000000000000e+03
7.328000000000000000e+03
7.104000000000000000e+03
7.376000000000000000e+03
7.088000000000000000e+03
8.016000000000000000e+03
8.080000000000000000e+03
8.000000000000000000e+03
6.608000000000000000e+03
8.000000000000000000e+03
8.384000000000000000e+03
8.416000000000000000e+03
8.272000000000000000e+03
7.472000000000000000e+03
7.552000000000000000e+03
7.328000000000000000e+03
6.832000000000000000e+03
7.488000000000000000e+03
8.704000000000000000e+03
8.624000000000000000e+03
8.256000000000000000e+03
8.208000000000000000e+03
8.304000000000000000e+03
8.400000000000000000e+03
8.352000000000000000e+03
8.128000000000000000e+03
7.952000000000000000e+03
7.792000000000000000e+03
7.936000000000000000e+03
8.320000000000000000e+03
8.624000000000000000e+03
8.064000000000000000e+03
7.248000000000000000e+03
7.344000000000000000e+03
7.696000000000000000e+03
8.048000000000000000e+03
8.400000000000000000e+03
8.384000000000000000e+03
7.872000000000000000e+03
7.952000000000000000e+03
8.240000000000000000e+03
8.528000000000000000e+03
8.512000000000000000e+03
7.776000000000000000e+03
7.696000000000000000e+03
7.856000000000000000e+03
8.272000000000000000e+03
8.912000000000000000e+03
1.001600000000000000e+04
1.240000000000000000e+04
1.302400000000000000e+04
1.392000000000000000e+04
1.723200000000000000e+04
1.724800000000000000e+04
1.724800000000000000e+04
1.724800000000000000e+04
7.056000000000000000e+03
3.184000000000000000e+03
1.072000000000000000e+03
1.600000000000000000e+01
1.952000000000000000e+03
1.113600000000000000e+04
1.196800000000000000e+04
1.083200000000000000e+04
9.760000000000000000e+03
8.304000000000000000e+03
5.696000000000000000e+03
9.248000000000000000e+03
7.744000000000000000e+03
7.968000000000000000e+03
8.320000000000000000e+03
8.704000000000000000e+03
8.752000000000000000e+03
8.192000000000000000e+03
8.688000000000000000e+03
8.912000000000000000e+03
8.752000000000000000e+03
8.336000000000000000e+03
8.192000000000000000e+03
8.048000000000000000e+03
7.968000000000000000e+03
8.048000000000000000e+03
8.880000000000000000e+03
9.232000000000000000e+03
9.200000000000000000e+03
9.248000000000000000e+03
9.424000000000000000e+03
9.808000000000000000e+03
9.696000000000000000e+03
9.504000000000000000e+03
9.248000000000000000e+03
1.057600000000000000e+04
1.060800000000000000e+04
1.051200000000000000e+04
1.035200000000000000e+04
1.025600000000000000e+04
1.030400000000000000e+04
1.160000000000000000e+04
1.147200000000000000e+04
1.128000000000000000e+04
1.112000000000000000e+04
1.102400000000000000e+04
1.113600000000000000e+04
1.296000000000000000e+04
1.280000000000000000e+04
1.267200000000000000e+04
1.241600000000000000e+04
1.238400000000000000e+04
1.264000000000000000e+04
1.372800000000000000e+04
1.345600000000000000e+04
1.331200000000000000e+04
1.334400000000000000e+04
1.350400000000000000e+04
1.382400000000000000e+04
1.401600000000000000e+04
1.220800000000000000e+04
1.230400000000000000e+04
1.257600000000000000e+04
1.275200000000000000e+04
1.276800000000000000e+04
1.227200000000000000e+04
1.081600000000000000e+04
9.296000000000000000e+03
8.880000000000000000e+03
7.792000000000000000e+03
7.440000000000000000e+03
7.104000000000000000e+03
6.880000000000000000e+03
7.968000000000000000e+03
7.680000000000000000e+03
7.424000000000000000e+03
6.656000000000000000e+03
6.928000000000000000e+03
6.704000000000000000e+03
6.528000000000000000e+03
6.304000000000000000e+03
6.080000000000000000e+03
6.464000000000000000e+03
6.768000000000000000e+03
7.040000000000000000e+03
6.928000000000000000e+03
6.016000000000000000e+03
6.384000000000000000e+03
6.736000000000000000e+03
7.152000000000000000e+03
7.088000000000000000e+03
6.336000000000000000e+03
7.888000000000000000e+03
8.064000000000000000e+03
8.080000000000000000e+03
7.872000000000000000e+03
7.472000000000000000e+03
6.816000000000000000e+03
6.480000000000000000e+03
7.072000000000000000e+03
7.936000000000000000e+03
7.616000000000000000e+03
7.360000000000000000e+03
6.480000000000000000e+03
6.384000000000000000e+03
6.752000000000000000e+03
7.168000000000000000e+03
7.344000000000000000e+03
6.320000000000000000e+03
6.544000000000000000e+03
7.424000000000000000e+03
8.112000000000000000e+03
8.176000000000000000e+03
7.328000000000000000e+03
6.512000000000000000e+03
7.648000000000000000e+03
7.984000000000000000e+03
6.736000000000000000e+03
6.736000000000000000e+03
6.928000000000000000e+03
7.520000000000000000e+03
7.584000000000000000e+03
7.504000000000000000e+03
7.408000000000000000e+03
7.136000000000000000e+03
6.976000000000000000e+03
7.648000000000000000e+03
6.528000000000000000e+03
6.608000000000000000e+03
6.944000000000000000e+03
7.312000000000000000e+03
7.712000000000000000e+03
7.936000000000000000e+03
7.280000000000000000e+03
7.040000000000000000e+03
6.944000000000000000e+03
6.880000000000000000e+03
8.048000000000000000e+03
7.728000000000000000e+03
6.672000000000000000e+03
6.816000000000000000e+03
7.248000000000000000e+03
8.016000000000000000e+03
8.192000000000000000e+03
7.952000000000000000e+03
6.768000000000000000e+03
7.824000000000000000e+03
7.488000000000000000e+03
7.248000000000000000e+03
7.088000000000000000e+03
6.960000000000000000e+03
6.896000000000000000e+03
7.632000000000000000e+03
7.520000000000000000e+03
7.424000000000000000e+03
7.392000000000000000e+03
8.160000000000000000e+03
7.904000000000000000e+03
7.440000000000000000e+03
7.328000000000000000e+03
7.248000000000000000e+03
8.192000000000000000e+03
8.032000000000000000e+03
7.792000000000000000e+03
7.360000000000000000e+03
7.200000000000000000e+03
8.000000000000000000e+03
8.016000000000000000e+03
7.904000000000000000e+03
7.744000000000000000e+03
7.632000000000000000e+03
7.408000000000000000e+03
7.616000000000000000e+03
8.608000000000000000e+03
8.480000000000000000e+03
8.272000000000000000e+03
8.096000000000000000e+03
7.600000000000000000e+03
7.552000000000000000e+03
7.840000000000000000e+03
8.688000000000000000e+03
8.160000000000000000e+03
8.528000000000000000e+03
9.008000000000000000e+03
9.168000000000000000e+03
9.168000000000000000e+03
7.552000000000000000e+03
8.624000000000000000e+03
8.224000000000000000e+03
7.984000000000000000e+03
7.808000000000000000e+03
7.728000000000000000e+03
7.968000000000000000e+03
9.440000000000000000e+03
7.632000000000000000e+03
8.064000000000000000e+03
8.576000000000000000e+03
8.848000000000000000e+03
8.976000000000000000e+03
8.784000000000000000e+03
8.480000000000000000e+03
8.224000000000000000e+03
7.968000000000000000e+03
7.664000000000000000e+03
8.448000000000000000e+03
9.776000000000000000e+03
1.416000000000000000e+04
1.667200000000000000e+04
1.720000000000000000e+04
1.721600000000000000e+04
1.723200000000000000e+04
1.723200000000000000e+04
1.723200000000000000e+04
1.724800000000000000e+04
1.723200000000000000e+04
1.724800000000000000e+04
1.403200000000000000e+04
1.028800000000000000e+04
7.328000000000000000e+03
1.280000000000000000e+03
3.376000000000000000e+03
1.188800000000000000e+04
1.084800000000000000e+04
9.872000000000000000e+03
8.480000000000000000e+03
5.936000000000000000e+03
5.872000000000000000e+03
9.184000000000000000e+03
9.184000000000000000e+03
7.760000000000000000e+03
7.600000000000000000e+03
7.696000000000000000e+03
8.224000000000000000e+03
8.384000000000000000e+03
8.448000000000000000e+03
7.952000000000000000e+03
8.352000000000000000e+03
8.848000000000000000e+03
8.496000000000000000e+03
8.368000000000000000e+03
8.272000000000000000e+03
8.352000000000000000e+03
9.520000000000000000e+03
9.424000000000000000e+03
9.040000000000000000e+03
8.832000000000000000e+03
8.864000000000000000e+03
1.001600000000000000e+04
9.248000000000000000e+03
9.104000000000000000e+03
9.072000000000000000e+03
9.056000000000000000e+03
1.062400000000000000e+04
1.044800000000000000e+04
9.840000000000000000e+03
9.792000000000000000e+03
9.776000000000000000e+03
9.840000000000000000e+03
1.025600000000000000e+04
1.116800000000000000e+04
1.124800000000000000e+04
1.096000000000000000e+04
1.220800000000000000e+04
1.254400000000000000e+04
1.268800000000000000e+04
1.275200000000000000e+04
1.267200000000000000e+04
1.232000000000000000e+04
1.374400000000000000e+04
1.356800000000000000e+04
1.337600000000000000e+04
1.320000000000000000e+04
1.299200000000000000e+04
1.275200000000000000e+04
1.347200000000000000e+04
1.304000000000000000e+04
1.198400000000000000e+04
1.190400000000000000e+04
1.219200000000000000e+04
1.232000000000000000e+04
1.193600000000000000e+04
9.728000000000000000e+03
9.584000000000000000e+03
9.856000000000000000e+03
9.552000000000000000e+03
9.248000000000000000e+03
8.800000000000000000e+03
8.464000000000000000e+03
7.472000000000000000e+03
8.288000000000000000e+03
8.112000000000000000e+03
7.856000000000000000e+03
7.504000000000000000e+03
7.248000000000000000e+03
6.480000000000000000e+03
7.456000000000000000e+03
7.216000000000000000e+03
6.864000000000000000e+03
6.592000000000000000e+03
6.272000000000000000e+03
6.112000000000000000e+03
5.968000000000000000e+03
7.392000000000000000e+03
6.048000000000000000e+03
6.048000000000000000e+03
6.304000000000000000e+03
6.608000000000000000e+03
7.168000000000000000e+03
6.912000000000000000e+03
6.672000000000000000e+03
6.448000000000000000e+03
6.368000000000000000e+03
6.368000000000000000e+03
8.112000000000000000e+03
7.056000000000000000e+03
6.768000000000000000e+03
6.608000000000000000e+03
6.480000000000000000e+03
6.448000000000000000e+03
7.968000000000000000e+03
7.136000000000000000e+03
6.960000000000000000e+03
6.816000000000000000e+03
6.880000000000000000e+03
7.120000000000000000e+03
7.856000000000000000e+03
7.712000000000000000e+03
7.120000000000000000e+03
6.896000000000000000e+03
6.848000000000000000e+03
7.040000000000000000e+03
7.488000000000000000e+03
7.760000000000000000e+03
6.896000000000000000e+03
6.880000000000000000e+03
7.792000000000000000e+03
7.888000000000000000e+03
7.856000000000000000e+03
7.728000000000000000e+03
7.264000000000000000e+03
6.816000000000000000e+03
7.792000000000000000e+03
7.632000000000000000e+03
7.424000000000000000e+03
6.864000000000000000e+03
7.136000000000000000e+03
7.552000000000000000e+03
7.840000000000000000e+03
7.664000000000000000e+03
7.440000000000000000e+03
7.280000000000000000e+03
7.152000000000000000e+03
7.024000000000000000e+03
7.984000000000000000e+03
8.096000000000000000e+03
7.264000000000000000e+03
7.184000000000000000e+03
7.136000000000000000e+03
8.000000000000000000e+03
7.856000000000000000e+03
7.536000000000000000e+03
7.296000000000000000e+03
6.992000000000000000e+03
6.752000000000000000e+03
8.176000000000000000e+03
8.176000000000000000e+03
8.048000000000000000e+03
7.840000000000000000e+03
7.584000000000000000e+03
7.184000000000000000e+03
7.936000000000000000e+03
7.744000000000000000e+03
7.232000000000000000e+03
7.392000000000000000e+03
7.760000000000000000e+03
8.112000000000000000e+03
8.496000000000000000e+03
8.464000000000000000e+03
8.208000000000000000e+03
7.312000000000000000e+03
8.544000000000000000e+03
8.480000000000000000e+03
8.080000000000000000e+03
7.856000000000000000e+03
7.296000000000000000e+03
7.168000000000000000e+03
8.320000000000000000e+03
7.808000000000000000e+03
7.280000000000000000e+03
7.360000000000000000e+03
7.600000000000000000e+03
8.064000000000000000e+03
8.368000000000000000e+03
8.656000000000000000e+03
7.856000000000000000e+03
7.328000000000000000e+03
9.040000000000000000e+03
8.672000000000000000e+03
7.904000000000000000e+03
7.488000000000000000e+03
7.504000000000000000e+03
7.728000000000000000e+03
8.240000000000000000e+03
8.608000000000000000e+03
8.960000000000000000e+03
8.480000000000000000e+03
8.192000000000000000e+03
8.416000000000000000e+03
8.800000000000000000e+03
9.024000000000000000e+03
9.136000000000000000e+03
8.704000000000000000e+03
8.448000000000000000e+03
8.272000000000000000e+03
8.032000000000000000e+03
7.872000000000000000e+03
7.744000000000000000e+03
7.712000000000000000e+03
7.808000000000000000e+03
8.112000000000000000e+03
8.752000000000000000e+03
7.440000000000000000e+03
7.664000000000000000e+03
8.016000000000000000e+03
8.528000000000000000e+03
8.832000000000000000e+03
9.104000000000000000e+03
9.072000000000000000e+03
8.064000000000000000e+03
8.000000000000000000e+03
1.158400000000000000e+04
1.350400000000000000e+04
1.446400000000000000e+04
1.718400000000000000e+04
1.720000000000000000e+04
1.720000000000000000e+04
1.382400000000000000e+04
6.000000000000000000e+03
9.376000000000000000e+03
1.011200000000000000e+04
1.030400000000000000e+04
1.020800000000000000e+04
9.888000000000000000e+03
7.344000000000000000e+03
8.960000000000000000e+03
8.752000000000000000e+03
8.128000000000000000e+03
8.016000000000000000e+03
9.088000000000000000e+03
9.024000000000000000e+03
9.008000000000000000e+03
9.248000000000000000e+03
1.036800000000000000e+04
9.760000000000000000e+03
1.022400000000000000e+04
1.012800000000000000e+04
1.052800000000000000e+04
1.152000000000000000e+04
1.180800000000000000e+04
1.192000000000000000e+04
1.212800000000000000e+04
1.321600000000000000e+04
1.331200000000000000e+04
1.286400000000000000e+04
1.292800000000000000e+04
1.326400000000000000e+04
1.419200000000000000e+04
1.432000000000000000e+04
1.305600000000000000e+04
1.304000000000000000e+04
1.392000000000000000e+04
1.358400000000000000e+04
1.326400000000000000e+04
1.281600000000000000e+04
1.246400000000000000e+04
1.171200000000000000e+04
1.195200000000000000e+04
1.179200000000000000e+04
9.456000000000000000e+03
9.200000000000000000e+03
8.960000000000000000e+03
9.360000000000000000e+03
9.472000000000000000e+03
7.056000000000000000e+03
6.944000000000000000e+03
7.296000000000000000e+03
7.568000000000000000e+03
7.696000000000000000e+03
7.456000000000000000e+03
6.016000000000000000e+03
6.000000000000000000e+03
6.224000000000000000e+03
7.264000000000000000e+03
6.768000000000000000e+03
6.560000000000000000e+03
6.304000000000000000e+03
6.160000000000000000e+03
6.032000000000000000e+03
7.520000000000000000e+03
6.992000000000000000e+03
6.288000000000000000e+03
6.592000000000000000e+03
7.248000000000000000e+03
6.256000000000000000e+03
6.096000000000000000e+03
5.952000000000000000e+03
6.992000000000000000e+03
7.472000000000000000e+03
7.392000000000000000e+03
7.232000000000000000e+03
6.704000000000000000e+03
7.696000000000000000e+03
7.088000000000000000e+03
7.008000000000000000e+03
6.976000000000000000e+03
7.152000000000000000e+03
7.472000000000000000e+03
7.776000000000000000e+03
7.024000000000000000e+03
8.096000000000000000e+03
7.856000000000000000e+03
7.504000000000000000e+03
7.232000000000000000e+03
6.896000000000000000e+03
6.720000000000000000e+03
6.352000000000000000e+03
6.336000000000000000e+03
6.672000000000000000e+03
7.664000000000000000e+03
7.968000000000000000e+03
7.952000000000000000e+03
7.824000000000000000e+03
7.408000000000000000e+03
7.808000000000000000e+03
7.632000000000000000e+03
7.328000000000000000e+03
6.880000000000000000e+03
6.864000000000000000e+03
7.008000000000000000e+03
7.248000000000000000e+03
7.728000000000000000e+03
8.224000000000000000e+03
7.280000000000000000e+03
6.560000000000000000e+03
6.576000000000000000e+03
7.952000000000000000e+03
6.832000000000000000e+03
6.736000000000000000e+03
6.720000000000000000e+03
6.864000000000000000e+03
7.232000000000000000e+03
7.824000000000000000e+03
7.360000000000000000e+03
7.392000000000000000e+03
7.584000000000000000e+03
8.144000000000000000e+03
8.432000000000000000e+03
7.312000000000000000e+03
8.320000000000000000e+03
8.064000000000000000e+03
7.840000000000000000e+03
7.568000000000000000e+03
7.312000000000000000e+03
7.056000000000000000e+03
7.568000000000000000e+03
7.968000000000000000e+03
6.896000000000000000e+03
6.768000000000000000e+03
6.800000000000000000e+03
6.880000000000000000e+03
8.448000000000000000e+03
9.296000000000000000e+03
7.392000000000000000e+03
7.296000000000000000e+03
8.144000000000000000e+03
8.384000000000000000e+03
8.432000000000000000e+03
8.352000000000000000e+03
7.760000000000000000e+03
7.632000000000000000e+03
7.504000000000000000e+03
7.408000000000000000e+03
8.576000000000000000e+03
7.408000000000000000e+03
7.312000000000000000e+03
7.360000000000000000e+03
7.648000000000000000e+03
7.904000000000000000e+03
8.144000000000000000e+03
8.160000000000000000e+03
8.112000000000000000e+03
8.032000000000000000e+03
8.096000000000000000e+03
9.520000000000000000e+03
7.600000000000000000e+03
7.696000000000000000e+03
8.080000000000000000e+03
8.448000000000000000e+03
8.816000000000000000e+03
9.008000000000000000e+03
8.896000000000000000e+03
8.656000000000000000e+03
7.696000000000000000e+03
8.704000000000000000e+03
8.576000000000000000e+03
8.336000000000000000e+03
8.160000000000000000e+03
7.920000000000000000e+03
7.744000000000000000e+03
8.496000000000000000e+03
8.768000000000000000e+03
8.736000000000000000e+03
7.728000000000000000e+03
8.464000000000000000e+03
8.608000000000000000e+03
8.672000000000000000e+03
8.720000000000000000e+03
8.768000000000000000e+03
1.148800000000000000e+04
1.718400000000000000e+04
1.720000000000000000e+04
1.721600000000000000e+04
1.723200000000000000e+04
1.723200000000000000e+04
1.721600000000000000e+04
1.716800000000000000e+04
1.572800000000000000e+04
1.331200000000000000e+04
9.424000000000000000e+03
5.760000000000000000e+02
1.107200000000000000e+04
1.134400000000000000e+04
1.115200000000000000e+04
1.064000000000000000e+04
9.680000000000000000e+03
8.896000000000000000e+03
8.784000000000000000e+03
8.464000000000000000e+03
8.224000000000000000e+03
8.112000000000000000e+03
8.192000000000000000e+03
8.352000000000000000e+03
8.352000000000000000e+03
8.048000000000000000e+03
7.984000000000000000e+03
8.064000000000000000e+03
8.896000000000000000e+03
8.720000000000000000e+03
8.464000000000000000e+03
8.096000000000000000e+03
8.064000000000000000e+03
8.128000000000000000e+03
8.688000000000000000e+03
9.152000000000000000e+03
9.552000000000000000e+03
8.464000000000000000e+03
8.448000000000000000e+03
8.544000000000000000e+03
1.028800000000000000e+04
8.928000000000000000e+03
8.784000000000000000e+03
8.752000000000000000e+03
8.832000000000000000e+03
9.232000000000000000e+03
1.067200000000000000e+04
1.020800000000000000e+04
9.744000000000000000e+03
1.116800000000000000e+04
1.113600000000000000e+04
1.108800000000000000e+04
1.161600000000000000e+04
1.211200000000000000e+04
1.238400000000000000e+04
1.256000000000000000e+04
1.256000000000000000e+04
1.174400000000000000e+04
1.185600000000000000e+04
1.398400000000000000e+04
1.435200000000000000e+04
1.419200000000000000e+04
1.259200000000000000e+04
1.364800000000000000e+04
1.382400000000000000e+04
1.382400000000000000e+04
1.361600000000000000e+04
1.340800000000000000e+04
1.312000000000000000e+04
1.240000000000000000e+04
1.276800000000000000e+04
1.264000000000000000e+04
1.228800000000000000e+04
1.196800000000000000e+04
1.116800000000000000e+04
1.049600000000000000e+04
7.696000000000000000e+03
7.504000000000000000e+03
7.824000000000000000e+03
6.832000000000000000e+03
7.152000000000000000e+03
7.440000000000000000e+03
7.776000000000000000e+03
6.288000000000000000e+03
6.160000000000000000e+03
6.352000000000000000e+03
6.608000000000000000e+03
6.992000000000000000e+03
7.008000000000000000e+03
6.912000000000000000e+03
6.288000000000000000e+03
6.320000000000000000e+03
6.960000000000000000e+03
7.264000000000000000e+03
7.328000000000000000e+03
7.120000000000000000e+03
6.896000000000000000e+03
6.320000000000000000e+03
6.112000000000000000e+03
7.136000000000000000e+03
7.424000000000000000e+03
6.432000000000000000e+03
7.936000000000000000e+03
7.760000000000000000e+03
7.520000000000000000e+03
7.312000000000000000e+03
7.088000000000000000e+03
7.120000000000000000e+03
7.232000000000000000e+03
7.056000000000000000e+03
6.832000000000000000e+03
6.672000000000000000e+03
7.952000000000000000e+03
7.328000000000000000e+03
6.704000000000000000e+03
6.688000000000000000e+03
6.800000000000000000e+03
7.088000000000000000e+03
7.504000000000000000e+03
7.856000000000000000e+03
7.680000000000000000e+03
7.184000000000000000e+03
6.880000000000000000e+03
6.688000000000000000e+03
8.048000000000000000e+03
6.768000000000000000e+03
6.688000000000000000e+03
6.912000000000000000e+03
7.360000000000000000e+03
7.952000000000000000e+03
7.760000000000000000e+03
7.504000000000000000e+03
8.000000000000000000e+03
6.544000000000000000e+03
7.056000000000000000e+03
8.256000000000000000e+03
8.080000000000000000e+03
7.584000000000000000e+03
7.376000000000000000e+03
7.872000000000000000e+03
7.184000000000000000e+03
7.168000000000000000e+03
6.688000000000000000e+03
6.896000000000000000e+03
7.984000000000000000e+03
8.240000000000000000e+03
8.288000000000000000e+03
8.064000000000000000e+03
8.512000000000000000e+03
8.608000000000000000e+03
7.888000000000000000e+03
7.552000000000000000e+03
8.432000000000000000e+03
8.304000000000000000e+03
8.016000000000000000e+03
7.296000000000000000e+03
7.248000000000000000e+03
7.264000000000000000e+03
7.440000000000000000e+03
9.120000000000000000e+03
7.552000000000000000e+03
7.456000000000000000e+03
7.536000000000000000e+03
7.808000000000000000e+03
8.192000000000000000e+03
8.528000000000000000e+03
7.792000000000000000e+03
8.768000000000000000e+03
8.656000000000000000e+03
8.480000000000000000e+03
8.304000000000000000e+03
8.176000000000000000e+03
9.264000000000000000e+03
9.296000000000000000e+03
9.184000000000000000e+03
9.008000000000000000e+03
8.368000000000000000e+03
9.424000000000000000e+03
9.312000000000000000e+03
8.976000000000000000e+03
8.720000000000000000e+03
8.384000000000000000e+03
7.872000000000000000e+03
8.432000000000000000e+03
8.768000000000000000e+03
8.160000000000000000e+03
8.944000000000000000e+03
9.104000000000000000e+03
8.656000000000000000e+03
8.432000000000000000e+03
8.144000000000000000e+03
7.984000000000000000e+03
7.840000000000000000e+03
8.000000000000000000e+03
8.416000000000000000e+03
8.976000000000000000e+03
9.024000000000000000e+03
1.572800000000000000e+04
1.700800000000000000e+04
1.716800000000000000e+04
1.720000000000000000e+04
1.721600000000000000e+04
1.721600000000000000e+04
1.724800000000000000e+04
1.724800000000000000e+04
1.724800000000000000e+04
1.723200000000000000e+04
1.212800000000000000e+04
4.992000000000000000e+03
6.784000000000000000e+03
8.096000000000000000e+03
9.504000000000000000e+03
1.025600000000000000e+04
9.200000000000000000e+03
8.800000000000000000e+03
8.272000000000000000e+03
7.888000000000000000e+03
7.184000000000000000e+03
7.872000000000000000e+03
9.360000000000000000e+03
9.104000000000000000e+03
8.448000000000000000e+03
8.256000000000000000e+03
8.000000000000000000e+03
7.984000000000000000e+03
8.048000000000000000e+03
8.400000000000000000e+03
8.784000000000000000e+03
9.360000000000000000e+03
8.176000000000000000e+03
8.176000000000000000e+03
8.256000000000000000e+03
9.232000000000000000e+03
9.632000000000000000e+03
8.432000000000000000e+03
9.856000000000000000e+03
9.920000000000000000e+03
9.856000000000000000e+03
9.792000000000000000e+03
9.440000000000000000e+03
9.824000000000000000e+03
1.003200000000000000e+04
1.017600000000000000e+04
1.022400000000000000e+04
9.824000000000000000e+03
1.099200000000000000e+04
1.089600000000000000e+04
1.073600000000000000e+04
1.057600000000000000e+04
1.046400000000000000e+04
1.041600000000000000e+04
1.076800000000000000e+04
1.110400000000000000e+04
1.236800000000000000e+04
1.177600000000000000e+04
1.156800000000000000e+04
1.134400000000000000e+04
1.179200000000000000e+04
1.344000000000000000e+04
1.270400000000000000e+04
1.270400000000000000e+04
1.275200000000000000e+04
1.336000000000000000e+04
1.366400000000000000e+04
1.395200000000000000e+04
1.392000000000000000e+04
1.369600000000000000e+04
1.254400000000000000e+04
1.316800000000000000e+04
1.323200000000000000e+04
1.308800000000000000e+04
8.304000000000000000e+03
8.064000000000000000e+03
7.776000000000000000e+03
7.648000000000000000e+03
7.264000000000000000e+03
7.264000000000000000e+03
6.896000000000000000e+03
6.624000000000000000e+03
6.384000000000000000e+03
6.192000000000000000e+03
6.176000000000000000e+03
6.048000000000000000e+03
6.016000000000000000e+03
6.192000000000000000e+03
6.496000000000000000e+03
7.216000000000000000e+03
7.008000000000000000e+03
6.336000000000000000e+03
6.528000000000000000e+03
6.848000000000000000e+03
7.680000000000000000e+03
7.632000000000000000e+03
7.104000000000000000e+03
6.576000000000000000e+03
8.096000000000000000e+03
7.376000000000000000e+03
7.152000000000000000e+03
6.864000000000000000e+03
6.672000000000000000e+03
6.480000000000000000e+03
7.344000000000000000e+03
7.360000000000000000e+03
7.248000000000000000e+03
6.928000000000000000e+03
6.880000000000000000e+03
8.208000000000000000e+03
6.768000000000000000e+03
6.672000000000000000e+03
6.688000000000000000e+03
6.992000000000000000e+03
7.488000000000000000e+03
8.112000000000000000e+03
7.296000000000000000e+03
6.896000000000000000e+03
6.880000000000000000e+03
7.040000000000000000e+03
7.824000000000000000e+03
7.632000000000000000e+03
7.664000000000000000e+03
7.568000000000000000e+03
7.408000000000000000e+03
7.280000000000000000e+03
7.136000000000000000e+03
7.152000000000000000e+03
7.328000000000000000e+03
7.744000000000000000e+03
6.784000000000000000e+03
6.752000000000000000e+03
6.768000000000000000e+03
7.104000000000000000e+03
8.064000000000000000e+03
8.016000000000000000e+03
7.072000000000000000e+03
7.040000000000000000e+03
7.056000000000000000e+03
7.584000000000000000e+03
8.032000000000000000e+03
7.744000000000000000e+03
7.536000000000000000e+03
6.896000000000000000e+03
8.192000000000000000e+03
8.240000000000000000e+03
8.112000000000000000e+03
7.888000000000000000e+03
7.552000000000000000e+03
6.784000000000000000e+03
8.112000000000000000e+03
8.304000000000000000e+03
8.352000000000000000e+03
8.192000000000000000e+03
7.248000000000000000e+03
7.552000000000000000e+03
7.888000000000000000e+03
8.336000000000000000e+03
8.320000000000000000e+03
8.160000000000000000e+03
7.312000000000000000e+03
7.872000000000000000e+03
8.112000000000000000e+03
8.272000000000000000e+03
8.128000000000000000e+03
7.168000000000000000e+03
6.960000000000000000e+03
8.256000000000000000e+03
8.192000000000000000e+03
7.808000000000000000e+03
7.760000000000000000e+03
7.712000000000000000e+03
7.824000000000000000e+03
8.128000000000000000e+03
8.352000000000000000e+03
7.648000000000000000e+03
8.448000000000000000e+03
8.368000000000000000e+03
8.128000000000000000e+03
7.728000000000000000e+03
7.536000000000000000e+03
7.264000000000000000e+03
8.672000000000000000e+03
8.656000000000000000e+03
8.432000000000000000e+03
7.744000000000000000e+03
7.248000000000000000e+03
7.264000000000000000e+03
7.520000000000000000e+03
8.720000000000000000e+03
7.840000000000000000e+03
7.648000000000000000e+03
7.536000000000000000e+03
7.472000000000000000e+03
7.536000000000000000e+03
7.872000000000000000e+03
8.208000000000000000e+03
8.432000000000000000e+03
7.872000000000000000e+03
9.360000000000000000e+03
9.312000000000000000e+03
8.272000000000000000e+03
8.144000000000000000e+03
8.080000000000000000e+03
8.352000000000000000e+03
8.688000000000000000e+03
9.248000000000000000e+03
9.216000000000000000e+03
9.008000000000000000e+03
7.760000000000000000e+03
9.184000000000000000e+03
9.136000000000000000e+03
8.880000000000000000e+03
8.672000000000000000e+03
8.368000000000000000e+03
7.872000000000000000e+03
9.520000000000000000e+03
9.488000000000000000e+03
9.280000000000000000e+03
7.840000000000000000e+03
7.696000000000000000e+03
7.936000000000000000e+03
9.408000000000000000e+03
9.440000000000000000e+03
9.296000000000000000e+03
8.672000000000000000e+03
8.240000000000000000e+03
7.616000000000000000e+03
8.608000000000000000e+03
9.040000000000000000e+03
9.392000000000000000e+03
1.059200000000000000e+04
1.334400000000000000e+04
1.720000000000000000e+04
1.721600000000000000e+04
1.723200000000000000e+04
1.724800000000000000e+04
1.724800000000000000e+04
1.723200000000000000e+04
1.724800000000000000e+04
1.720000000000000000e+04
2.240000000000000000e+02
1.104000000000000000e+04
1.214400000000000000e+04
1.232000000000000000e+04
1.177600000000000000e+04
1.097600000000000000e+04
9.648000000000000000e+03
6.640000000000000000e+03
6.144000000000000000e+03
5.840000000000000000e+03
5.952000000000000000e+03
6.592000000000000000e+03
8.992000000000000000e+03
9.280000000000000000e+03
8.640000000000000000e+03
8.256000000000000000e+03
8.416000000000000000e+03
8.304000000000000000e+03
8.208000000000000000e+03
8.144000000000000000e+03
8.096000000000000000e+03
8.176000000000000000e+03
9.088000000000000000e+03
8.112000000000000000e+03
8.096000000000000000e+03
8.144000000000000000e+03
8.608000000000000000e+03
9.136000000000000000e+03
9.952000000000000000e+03
1.001600000000000000e+04
9.968000000000000000e+03
9.568000000000000000e+03
9.440000000000000000e+03
9.280000000000000000e+03
1.044800000000000000e+04
1.075200000000000000e+04
1.099200000000000000e+04
1.041600000000000000e+04
1.024000000000000000e+04
1.012800000000000000e+04
1.004800000000000000e+04
1.080000000000000000e+04
1.076800000000000000e+04
1.083200000000000000e+04
1.110400000000000000e+04
1.152000000000000000e+04
1.302400000000000000e+04
1.240000000000000000e+04
1.228800000000000000e+04
1.222400000000000000e+04
1.268800000000000000e+04
1.352000000000000000e+04
1.366400000000000000e+04
1.371200000000000000e+04
1.369600000000000000e+04
1.326400000000000000e+04
1.384000000000000000e+04
1.368000000000000000e+04
1.352000000000000000e+04
1.331200000000000000e+04
1.310400000000000000e+04
1.294400000000000000e+04
1.246400000000000000e+04
1.281600000000000000e+04
1.028800000000000000e+04
9.888000000000000000e+03
9.632000000000000000e+03
9.456000000000000000e+03
9.648000000000000000e+03
1.004800000000000000e+04
7.728000000000000000e+03
7.536000000000000000e+03
7.824000000000000000e+03
8.336000000000000000e+03
8.224000000000000000e+03
8.000000000000000000e+03
7.664000000000000000e+03
6.560000000000000000e+03
7.440000000000000000e+03
7.600000000000000000e+03
7.568000000000000000e+03
7.408000000000000000e+03
7.056000000000000000e+03
6.048000000000000000e+03
7.104000000000000000e+03
7.168000000000000000e+03
6.928000000000000000e+03
6.768000000000000000e+03
6.160000000000000000e+03
6.080000000000000000e+03
7.136000000000000000e+03
7.024000000000000000e+03
6.832000000000000000e+03
6.624000000000000000e+03
6.080000000000000000e+03
6.064000000000000000e+03
6.128000000000000000e+03
6.464000000000000000e+03
7.536000000000000000e+03
6.480000000000000000e+03
6.400000000000000000e+03
6.416000000000000000e+03
7.408000000000000000e+03
7.232000000000000000e+03
7.088000000000000000e+03
6.928000000000000000e+03
6.736000000000000000e+03
6.704000000000000000e+03
7.744000000000000000e+03
7.712000000000000000e+03
7.312000000000000000e+03
6.640000000000000000e+03
6.608000000000000000e+03
8.016000000000000000e+03
8.080000000000000000e+03
7.504000000000000000e+03
6.672000000000000000e+03
6.448000000000000000e+03
6.352000000000000000e+03
6.432000000000000000e+03
6.720000000000000000e+03
7.856000000000000000e+03
7.392000000000000000e+03
7.136000000000000000e+03
6.832000000000000000e+03
7.536000000000000000e+03
6.848000000000000000e+03
6.752000000000000000e+03
6.720000000000000000e+03
6.688000000000000000e+03
6.736000000000000000e+03
7.600000000000000000e+03
6.544000000000000000e+03
6.720000000000000000e+03
7.104000000000000000e+03
7.856000000000000000e+03
7.936000000000000000e+03
6.720000000000000000e+03
6.672000000000000000e+03
6.704000000000000000e+03
6.928000000000000000e+03
7.392000000000000000e+03
8.096000000000000000e+03
8.128000000000000000e+03
6.864000000000000000e+03
6.624000000000000000e+03
8.048000000000000000e+03
8.080000000000000000e+03
7.936000000000000000e+03
7.696000000000000000e+03
7.808000000000000000e+03
7.648000000000000000e+03
7.408000000000000000e+03
8.048000000000000000e+03
7.312000000000000000e+03
7.312000000000000000e+03
8.320000000000000000e+03
8.160000000000000000e+03
7.904000000000000000e+03
7.504000000000000000e+03
7.536000000000000000e+03
7.568000000000000000e+03
8.608000000000000000e+03
8.864000000000000000e+03
7.840000000000000000e+03
7.968000000000000000e+03
7.712000000000000000e+03
8.032000000000000000e+03
8.640000000000000000e+03
8.288000000000000000e+03
8.048000000000000000e+03
8.000000000000000000e+03
8.000000000000000000e+03
8.096000000000000000e+03
9.232000000000000000e+03
9.232000000000000000e+03
9.088000000000000000e+03
8.576000000000000000e+03
8.240000000000000000e+03
9.120000000000000000e+03
7.776000000000000000e+03
7.712000000000000000e+03
7.776000000000000000e+03
7.984000000000000000e+03
9.168000000000000000e+03
7.632000000000000000e+03
7.504000000000000000e+03
7.488000000000000000e+03
8.016000000000000000e+03
8.656000000000000000e+03
8.720000000000000000e+03
8.640000000000000000e+03
8.480000000000000000e+03
9.248000000000000000e+03
9.360000000000000000e+03
9.360000000000000000e+03
8.848000000000000000e+03
8.592000000000000000e+03
8.192000000000000000e+03
8.624000000000000000e+03
1.308800000000000000e+04
1.716800000000000000e+04
1.720000000000000000e+04
1.721600000000000000e+04
1.723200000000000000e+04
1.724800000000000000e+04
1.673600000000000000e+04
1.488000000000000000e+04
1.134400000000000000e+04
3.776000000000000000e+03
2.336000000000000000e+03
1.408000000000000000e+03
2.816000000000000000e+03
4.544000000000000000e+03
1.027200000000000000e+04
9.184000000000000000e+03
8.576000000000000000e+03
7.808000000000000000e+03
7.328000000000000000e+03
6.960000000000000000e+03
7.472000000000000000e+03
9.280000000000000000e+03
7.792000000000000000e+03
7.552000000000000000e+03
7.408000000000000000e+03
7.856000000000000000e+03
7.824000000000000000e+03
7.824000000000000000e+03
7.936000000000000000e+03
8.224000000000000000e+03
9.232000000000000000e+03
8.816000000000000000e+03
8.816000000000000000e+03
9.184000000000000000e+03
9.408000000000000000e+03
9.568000000000000000e+03
9.520000000000000000e+03
9.504000000000000000e+03
9.888000000000000000e+03
1.036800000000000000e+04
1.067200000000000000e+04
1.022400000000000000e+04
9.840000000000000000e+03
1.107200000000000000e+04
1.128000000000000000e+04
1.129600000000000000e+04
1.112000000000000000e+04
1.033600000000000000e+04
1.016000000000000000e+04
1.137600000000000000e+04
1.137600000000000000e+04
1.148800000000000000e+04
1.163200000000000000e+04
1.268800000000000000e+04
1.353600000000000000e+04
1.241600000000000000e+04
1.363200000000000000e+04
1.395200000000000000e+04
1.404800000000000000e+04
1.398400000000000000e+04
1.380800000000000000e+04
1.353600000000000000e+04
1.280000000000000000e+04
1.328000000000000000e+04
1.342400000000000000e+04
1.344000000000000000e+04
1.201600000000000000e+04
1.158400000000000000e+04
1.131200000000000000e+04
1.105600000000000000e+04
1.092800000000000000e+04
9.312000000000000000e+03
9.168000000000000000e+03
8.928000000000000000e+03
8.960000000000000000e+03
8.976000000000000000e+03
8.624000000000000000e+03
8.256000000000000000e+03
6.928000000000000000e+03
7.856000000000000000e+03
7.808000000000000000e+03
7.520000000000000000e+03
7.248000000000000000e+03
6.864000000000000000e+03
6.576000000000000000e+03
7.152000000000000000e+03
7.120000000000000000e+03
6.256000000000000000e+03
6.160000000000000000e+03
6.144000000000000000e+03
6.144000000000000000e+03
6.368000000000000000e+03
7.136000000000000000e+03
6.832000000000000000e+03
6.576000000000000000e+03
6.160000000000000000e+03
7.664000000000000000e+03
7.072000000000000000e+03
6.816000000000000000e+03
6.592000000000000000e+03
6.368000000000000000e+03
6.240000000000000000e+03
6.288000000000000000e+03
7.440000000000000000e+03
7.536000000000000000e+03
6.928000000000000000e+03
6.640000000000000000e+03
6.432000000000000000e+03
8.240000000000000000e+03
7.376000000000000000e+03
7.072000000000000000e+03
6.864000000000000000e+03
6.736000000000000000e+03
6.656000000000000000e+03
7.664000000000000000e+03
7.680000000000000000e+03
7.536000000000000000e+03
7.392000000000000000e+03
6.976000000000000000e+03
7.952000000000000000e+03
6.432000000000000000e+03
6.512000000000000000e+03
6.768000000000000000e+03
7.120000000000000000e+03
7.696000000000000000e+03
6.768000000000000000e+03
7.152000000000000000e+03
8.048000000000000000e+03
8.144000000000000000e+03
8.080000000000000000e+03
7.904000000000000000e+03
6.944000000000000000e+03
6.736000000000000000e+03
6.736000000000000000e+03
6.976000000000000000e+03
7.280000000000000000e+03
7.552000000000000000e+03
6.912000000000000000e+03
6.960000000000000000e+03
7.088000000000000000e+03
8.208000000000000000e+03
8.032000000000000000e+03
7.072000000000000000e+03
7.008000000000000000e+03
7.184000000000000000e+03
7.552000000000000000e+03
8.496000000000000000e+03
8.528000000000000000e+03
8.400000000000000000e+03
6.944000000000000000e+03
7.376000000000000000e+03
8.576000000000000000e+03
8.640000000000000000e+03
8.512000000000000000e+03
8.256000000000000000e+03
7.008000000000000000e+03
8.000000000000000000e+03
8.336000000000000000e+03
8.432000000000000000e+03
8.368000000000000000e+03
7.200000000000000000e+03
7.264000000000000000e+03
7.584000000000000000e+03
8.272000000000000000e+03
8.416000000000000000e+03
8.400000000000000000e+03
8.032000000000000000e+03
7.424000000000000000e+03
8.128000000000000000e+03
7.376000000000000000e+03
7.360000000000000000e+03
7.392000000000000000e+03
7.488000000000000000e+03
7.744000000000000000e+03
7.488000000000000000e+03
7.408000000000000000e+03
7.360000000000000000e+03
7.600000000000000000e+03
8.576000000000000000e+03
8.624000000000000000e+03
8.384000000000000000e+03
8.144000000000000000e+03
7.536000000000000000e+03
8.416000000000000000e+03
8.672000000000000000e+03
8.720000000000000000e+03
8.304000000000000000e+03
7.360000000000000000e+03
8.112000000000000000e+03
8.416000000000000000e+03
8.528000000000000000e+03
8.512000000000000000e+03
8.048000000000000000e+03
8.688000000000000000e+03
8.720000000000000000e+03
8.400000000000000000e+03
7.888000000000000000e+03
7.680000000000000000e+03
7.968000000000000000e+03
8.464000000000000000e+03
8.864000000000000000e+03
9.216000000000000000e+03
9.360000000000000000e+03
9.392000000000000000e+03
8.528000000000000000e+03
9.008000000000000000e+03
9.088000000000000000e+03
9.040000000000000000e+03
8.848000000000000000e+03
8.640000000000000000e+03
7.920000000000000000e+03
8.912000000000000000e+03
9.008000000000000000e+03
8.976000000000000000e+03
8.768000000000000000e+03
8.192000000000000000e+03
8.112000000000000000e+03
7.984000000000000000e+03
7.904000000000000000e+03
8.096000000000000000e+03
8.384000000000000000e+03
8.480000000000000000e+03
8.176000000000000000e+03
7.728000000000000000e+03
7.568000000000000000e+03
7.504000000000000000e+03
7.824000000000000000e+03
9.360000000000000000e+03
1.275200000000000000e+04
1.356800000000000000e+04
1.425600000000000000e+04
1.721600000000000000e+04
1.721600000000000000e+04
1.724800000000000000e+04
1.724800000000000000e+04
1.724800000000000000e+04
1.580800000000000000e+04
9.392000000000000000e+03
6.400000000000000000e+03
3.024000000000000000e+03
1.280000000000000000e+03
1.984000000000000000e+03
1.251200000000000000e+04
1.248000000000000000e+04
1.169600000000000000e+04
1.072000000000000000e+04
9.136000000000000000e+03
5.360000000000000000e+03
6.000000000000000000e+03
8.832000000000000000e+03
9.056000000000000000e+03
8.640000000000000000e+03
8.288000000000000000e+03
8.304000000000000000e+03
8.512000000000000000e+03
9.632000000000000000e+03
9.744000000000000000e+03
8.656000000000000000e+03
9.952000000000000000e+03
9.728000000000000000e+03
1.091200000000000000e+04
1.086400000000000000e+04
1.025600000000000000e+04
1.092800000000000000e+04
1.288000000000000000e+04
1.272000000000000000e+04
1.262400000000000000e+04
1.259200000000000000e+04
1.262400000000000000e+04
1.329600000000000000e+04
1.401600000000000000e+04
1.382400000000000000e+04
1.259200000000000000e+04
1.196800000000000000e+04
1.201600000000000000e+04
1.224000000000000000e+04
1.238400000000000000e+04
1.024000000000000000e+04
9.584000000000000000e+03
9.264000000000000000e+03
9.168000000000000000e+03
9.232000000000000000e+03
9.248000000000000000e+03
8.336000000000000000e+03
8.080000000000000000e+03
7.776000000000000000e+03
7.600000000000000000e+03
7.712000000000000000e+03
6.336000000000000000e+03
6.144000000000000000e+03
5.968000000000000000e+03
5.904000000000000000e+03
5.952000000000000000e+03
6.320000000000000000e+03
7.152000000000000000e+03
6.224000000000000000e+03
6.176000000000000000e+03
6.592000000000000000e+03
7.008000000000000000e+03
7.024000000000000000e+03
6.176000000000000000e+03
6.080000000000000000e+03
6.032000000000000000e+03
6.016000000000000000e+03
6.160000000000000000e+03
7.072000000000000000e+03
7.136000000000000000e+03
6.848000000000000000e+03
6.208000000000000000e+03
6.048000000000000000e+03
7.392000000000000000e+03
7.568000000000000000e+03
6.912000000000000000e+03
6.688000000000000000e+03
6.544000000000000000e+03
7.584000000000000000e+03
7.360000000000000000e+03
7.088000000000000000e+03
6.880000000000000000e+03
7.760000000000000000e+03
7.920000000000000000e+03
7.952000000000000000e+03
7.760000000000000000e+03
6.864000000000000000e+03
6.624000000000000000e+03
7.312000000000000000e+03
6.736000000000000000e+03
7.408000000000000000e+03
7.888000000000000000e+03
8.192000000000000000e+03
8.272000000000000000e+03
8.160000000000000000e+03
7.920000000000000000e+03
7.552000000000000000e+03
6.864000000000000000e+03
6.640000000000000000e+03
7.392000000000000000e+03
6.688000000000000000e+03
7.744000000000000000e+03
7.888000000000000000e+03
7.888000000000000000e+03
7.696000000000000000e+03
7.520000000000000000e+03
7.264000000000000000e+03
7.984000000000000000e+03
7.888000000000000000e+03
7.664000000000000000e+03
6.784000000000000000e+03
6.624000000000000000e+03
6.560000000000000000e+03
6.576000000000000000e+03
6.768000000000000000e+03
7.744000000000000000e+03
8.272000000000000000e+03
7.152000000000000000e+03
7.312000000000000000e+03
7.584000000000000000e+03
7.680000000000000000e+03
7.520000000000000000e+03
7.408000000000000000e+03
7.184000000000000000e+03
7.168000000000000000e+03
7.392000000000000000e+03
7.680000000000000000e+03
7.360000000000000000e+03
7.024000000000000000e+03
7.136000000000000000e+03
7.520000000000000000e+03
7.920000000000000000e+03
8.336000000000000000e+03
8.560000000000000000e+03
7.328000000000000000e+03
8.224000000000000000e+03
8.528000000000000000e+03
8.624000000000000000e+03
8.496000000000000000e+03
8.336000000000000000e+03
8.112000000000000000e+03
7.456000000000000000e+03
7.936000000000000000e+03
8.112000000000000000e+03
8.144000000000000000e+03
8.080000000000000000e+03
7.680000000000000000e+03
7.616000000000000000e+03
7.568000000000000000e+03
8.384000000000000000e+03
7.248000000000000000e+03
7.232000000000000000e+03
7.600000000000000000e+03
8.048000000000000000e+03
8.400000000000000000e+03
7.392000000000000000e+03
7.536000000000000000e+03
7.968000000000000000e+03
8.992000000000000000e+03
9.152000000000000000e+03
9.152000000000000000e+03
9.008000000000000000e+03
8.000000000000000000e+03
7.888000000000000000e+03
7.872000000000000000e+03
8.208000000000000000e+03
9.152000000000000000e+03
7.984000000000000000e+03
7.840000000000000000e+03
8.144000000000000000e+03
8.544000000000000000e+03
8.816000000000000000e+03
8.144000000000000000e+03
7.408000000000000000e+03
7.280000000000000000e+03
7.216000000000000000e+03
7.232000000000000000e+03
7.472000000000000000e+03
8.592000000000000000e+03
8.672000000000000000e+03
8.368000000000000000e+03
8.176000000000000000e+03
8.688000000000000000e+03
9.952000000000000000e+03
1.056000000000000000e+04
1.096000000000000000e+04
1.323200000000000000e+04
1.392000000000000000e+04
1.500800000000000000e+04
1.721600000000000000e+04
1.721600000000000000e+04
1.724800000000000000e+04
1.724800000000000000e+04
1.723200000000000000e+04
1.723200000000000000e+04
1.721600000000000000e+04
1.401600000000000000e+04
2.816000000000000000e+03
7.520000000000000000e+02
1.225600000000000000e+04
8.208000000000000000e+03
7.056000000000000000e+03
6.448000000000000000e+03
6.032000000000000000e+03
6.000000000000000000e+03
6.272000000000000000e+03
8.880000000000000000e+03
9.344000000000000000e+03
9.680000000000000000e+03
8.560000000000000000e+03
7.536000000000000000e+03
7.952000000000000000e+03
8.624000000000000000e+03
8.176000000000000000e+03
8.096000000000000000e+03
8.048000000000000000e+03
8.032000000000000000e+03
9.232000000000000000e+03
9.424000000000000000e+03
9.440000000000000000e+03
8.096000000000000000e+03
8.032000000000000000e+03
8.032000000000000000e+03
9.600000000000000000e+03
9.936000000000000000e+03
9.968000000000000000e+03
9.744000000000000000e+03
8.640000000000000000e+03
9.776000000000000000e+03
9.984000000000000000e+03
1.011200000000000000e+04
9.936000000000000000e+03
9.760000000000000000e+03
9.408000000000000000e+03
9.248000000000000000e+03
1.054400000000000000e+04
9.952000000000000000e+03
9.888000000000000000e+03
9.872000000000000000e+03
1.003200000000000000e+04
1.044800000000000000e+04
1.148800000000000000e+04
1.156800000000000000e+04
1.147200000000000000e+04
1.224000000000000000e+04
1.259200000000000000e+04
1.296000000000000000e+04
1.308800000000000000e+04
1.308800000000000000e+04
1.219200000000000000e+04
1.347200000000000000e+04
1.382400000000000000e+04
1.411200000000000000e+04
1.400000000000000000e+04
1.312000000000000000e+04
1.268800000000000000e+04
1.342400000000000000e+04
1.356800000000000000e+04
1.360000000000000000e+04
1.328000000000000000e+04
1.264000000000000000e+04
1.177600000000000000e+04
1.188800000000000000e+04
1.161600000000000000e+04
1.115200000000000000e+04
1.083200000000000000e+04
1.009600000000000000e+04
9.888000000000000000e+03
9.216000000000000000e+03
7.744000000000000000e+03
7.472000000000000000e+03
7.328000000000000000e+03
7.200000000000000000e+03
7.200000000000000000e+03
7.376000000000000000e+03
7.440000000000000000e+03
6.624000000000000000e+03
6.400000000000000000e+03
6.288000000000000000e+03
7.152000000000000000e+03
7.312000000000000000e+03
7.312000000000000000e+03
6.496000000000000000e+03
6.416000000000000000e+03
6.864000000000000000e+03
7.392000000000000000e+03
6.256000000000000000e+03
6.096000000000000000e+03
6.016000000000000000e+03
6.016000000000000000e+03
6.288000000000000000e+03
7.456000000000000000e+03
7.712000000000000000e+03
7.536000000000000000e+03
7.312000000000000000e+03
6.320000000000000000e+03
7.680000000000000000e+03
7.888000000000000000e+03
7.120000000000000000e+03
6.784000000000000000e+03
6.528000000000000000e+03
6.288000000000000000e+03
7.312000000000000000e+03
6.720000000000000000e+03
6.576000000000000000e+03
6.512000000000000000e+03
6.592000000000000000e+03
6.864000000000000000e+03
7.696000000000000000e+03
7.952000000000000000e+03
8.016000000000000000e+03
7.488000000000000000e+03
7.568000000000000000e+03
6.864000000000000000e+03
6.752000000000000000e+03
6.688000000000000000e+03
6.672000000000000000e+03
7.200000000000000000e+03
7.824000000000000000e+03
8.000000000000000000e+03
7.824000000000000000e+03
6.704000000000000000e+03
6.240000000000000000e+03
6.192000000000000000e+03
6.384000000000000000e+03
7.312000000000000000e+03
7.936000000000000000e+03
8.048000000000000000e+03
8.048000000000000000e+03
7.904000000000000000e+03
7.728000000000000000e+03
7.104000000000000000e+03
7.488000000000000000e+03
7.728000000000000000e+03
6.880000000000000000e+03
6.736000000000000000e+03
6.656000000000000000e+03
6.592000000000000000e+03
6.624000000000000000e+03
8.144000000000000000e+03
7.392000000000000000e+03
7.232000000000000000e+03
7.152000000000000000e+03
7.088000000000000000e+03
7.136000000000000000e+03
7.456000000000000000e+03
7.648000000000000000e+03
7.168000000000000000e+03
7.072000000000000000e+03
8.128000000000000000e+03
8.304000000000000000e+03
8.368000000000000000e+03
7.824000000000000000e+03
6.976000000000000000e+03
6.864000000000000000e+03
6.800000000000000000e+03
6.848000000000000000e+03
7.872000000000000000e+03
7.504000000000000000e+03
7.216000000000000000e+03
7.040000000000000000e+03
7.968000000000000000e+03
8.320000000000000000e+03
7.712000000000000000e+03
7.584000000000000000e+03
7.456000000000000000e+03
7.664000000000000000e+03
7.568000000000000000e+03
7.488000000000000000e+03
7.408000000000000000e+03
8.432000000000000000e+03
8.592000000000000000e+03
7.888000000000000000e+03
7.472000000000000000e+03
7.408000000000000000e+03
7.392000000000000000e+03
8.496000000000000000e+03
7.648000000000000000e+03
7.392000000000000000e+03
7.344000000000000000e+03
7.488000000000000000e+03
8.144000000000000000e+03
8.336000000000000000e+03
7.648000000000000000e+03
7.600000000000000000e+03
7.680000000000000000e+03
8.992000000000000000e+03
9.104000000000000000e+03
9.072000000000000000e+03
8.848000000000000000e+03
8.560000000000000000e+03
7.584000000000000000e+03
7.920000000000000000e+03
9.088000000000000000e+03
8.272000000000000000e+03
8.032000000000000000e+03
8.480000000000000000e+03
8.960000000000000000e+03
9.488000000000000000e+03
9.712000000000000000e+03
9.792000000000000000e+03
9.648000000000000000e+03
8.800000000000000000e+03
8.576000000000000000e+03
8.016000000000000000e+03
7.888000000000000000e+03
7.856000000000000000e+03
7.840000000000000000e+03
7.904000000000000000e+03
8.992000000000000000e+03
8.000000000000000000e+03
7.776000000000000000e+03
7.648000000000000000e+03
9.312000000000000000e+03
9.424000000000000000e+03
9.328000000000000000e+03
9.136000000000000000e+03
8.848000000000000000e+03
8.080000000000000000e+03
8.736000000000000000e+03
8.880000000000000000e+03
8.960000000000000000e+03
9.472000000000000000e+03
9.984000000000000000e+03
1.081600000000000000e+04
1.395200000000000000e+04
1.723200000000000000e+04
1.723200000000000000e+04
1.723200000000000000e+04
1.724800000000000000e+04
1.724800000000000000e+04
1.680000000000000000e+04
1.486400000000000000e+04
1.112000000000000000e+04
8.048000000000000000e+03
5.952000000000000000e+03
1.172800000000000000e+04
1.168000000000000000e+04
1.110400000000000000e+04
1.038400000000000000e+04
7.120000000000000000e+03
7.136000000000000000e+03
7.312000000000000000e+03
7.488000000000000000e+03
8.224000000000000000e+03
8.336000000000000000e+03
8.272000000000000000e+03
8.304000000000000000e+03
8.704000000000000000e+03
7.888000000000000000e+03
9.280000000000000000e+03
9.504000000000000000e+03
9.504000000000000000e+03
9.296000000000000000e+03
9.040000000000000000e+03
8.688000000000000000e+03
7.968000000000000000e+03
9.200000000000000000e+03
8.864000000000000000e+03
8.640000000000000000e+03
8.432000000000000000e+03
8.400000000000000000e+03
9.408000000000000000e+03
9.696000000000000000e+03
9.648000000000000000e+03
9.088000000000000000e+03
9.280000000000000000e+03
9.616000000000000000e+03
1.014400000000000000e+04
9.952000000000000000e+03
9.808000000000000000e+03
1.027200000000000000e+04
1.078400000000000000e+04
1.064000000000000000e+04
1.051200000000000000e+04
1.060800000000000000e+04
1.142400000000000000e+04
1.201600000000000000e+04
1.201600000000000000e+04
1.204800000000000000e+04
1.342400000000000000e+04
1.363200000000000000e+04
1.379200000000000000e+04
1.379200000000000000e+04
1.339200000000000000e+04
1.324800000000000000e+04
1.316800000000000000e+04
1.307200000000000000e+04
1.406400000000000000e+04
1.368000000000000000e+04
1.336000000000000000e+04
1.313600000000000000e+04
1.257600000000000000e+04
1.356800000000000000e+04
1.371200000000000000e+04
1.352000000000000000e+04
1.302400000000000000e+04
1.145600000000000000e+04
1.004800000000000000e+04
1.011200000000000000e+04
1.040000000000000000e+04
1.044800000000000000e+04
9.104000000000000000e+03
8.832000000000000000e+03
8.288000000000000000e+03
8.576000000000000000e+03
8.704000000000000000e+03
8.192000000000000000e+03
7.104000000000000000e+03
6.720000000000000000e+03
7.488000000000000000e+03
7.744000000000000000e+03
7.344000000000000000e+03
6.576000000000000000e+03
6.240000000000000000e+03
6.336000000000000000e+03
7.488000000000000000e+03
6.880000000000000000e+03
6.512000000000000000e+03
7.088000000000000000e+03
7.136000000000000000e+03
6.864000000000000000e+03
6.768000000000000000e+03
6.976000000000000000e+03
6.544000000000000000e+03
7.008000000000000000e+03
6.608000000000000000e+03
6.784000000000000000e+03
6.608000000000000000e+03
6.800000000000000000e+03
7.360000000000000000e+03
7.568000000000000000e+03
6.800000000000000000e+03
7.056000000000000000e+03
6.768000000000000000e+03
6.624000000000000000e+03
6.944000000000000000e+03
7.728000000000000000e+03
7.984000000000000000e+03
7.312000000000000000e+03
7.040000000000000000e+03
7.440000000000000000e+03
7.744000000000000000e+03
7.872000000000000000e+03
7.104000000000000000e+03
6.800000000000000000e+03
7.392000000000000000e+03
7.664000000000000000e+03
7.888000000000000000e+03
7.936000000000000000e+03
7.120000000000000000e+03
7.984000000000000000e+03
8.240000000000000000e+03
8.288000000000000000e+03
8.176000000000000000e+03
7.728000000000000000e+03
7.136000000000000000e+03
8.192000000000000000e+03
8.240000000000000000e+03
7.376000000000000000e+03
6.832000000000000000e+03
7.984000000000000000e+03
7.600000000000000000e+03
7.504000000000000000e+03
7.456000000000000000e+03
7.408000000000000000e+03
7.424000000000000000e+03
7.696000000000000000e+03
8.464000000000000000e+03
8.528000000000000000e+03
7.360000000000000000e+03
6.976000000000000000e+03
7.328000000000000000e+03
7.760000000000000000e+03
8.560000000000000000e+03
8.160000000000000000e+03
7.776000000000000000e+03
7.216000000000000000e+03
7.360000000000000000e+03
7.728000000000000000e+03
8.112000000000000000e+03
8.048000000000000000e+03
8.400000000000000000e+03
8.544000000000000000e+03
8.592000000000000000e+03
8.176000000000000000e+03
7.584000000000000000e+03
7.952000000000000000e+03
8.432000000000000000e+03
8.496000000000000000e+03
8.416000000000000000e+03
7.744000000000000000e+03
7.584000000000000000e+03
7.520000000000000000e+03
8.416000000000000000e+03
7.632000000000000000e+03
7.552000000000000000e+03
7.536000000000000000e+03
7.584000000000000000e+03
8.192000000000000000e+03
8.400000000000000000e+03
9.200000000000000000e+03
9.472000000000000000e+03
9.536000000000000000e+03
9.440000000000000000e+03
9.184000000000000000e+03
8.448000000000000000e+03
7.488000000000000000e+03
8.176000000000000000e+03
8.192000000000000000e+03
8.048000000000000000e+03
7.856000000000000000e+03
7.856000000000000000e+03
8.000000000000000000e+03
8.992000000000000000e+03
8.864000000000000000e+03
8.352000000000000000e+03
8.144000000000000000e+03
7.904000000000000000e+03
8.896000000000000000e+03
9.120000000000000000e+03
9.248000000000000000e+03
8.176000000000000000e+03
7.920000000000000000e+03
8.192000000000000000e+03
8.816000000000000000e+03
9.024000000000000000e+03
9.248000000000000000e+03
1.052800000000000000e+04
1.577600000000000000e+04
1.715200000000000000e+04
1.718400000000000000e+04
1.721600000000000000e+04
1.724800000000000000e+04
1.723200000000000000e+04
1.721600000000000000e+04
1.704000000000000000e+04
1.547200000000000000e+04
1.193600000000000000e+04
8.912000000000000000e+03
6.560000000000000000e+02
1.009600000000000000e+04
1.219200000000000000e+04
9.088000000000000000e+03
8.112000000000000000e+03
6.992000000000000000e+03
6.384000000000000000e+03
5.936000000000000000e+03
6.032000000000000000e+03
8.864000000000000000e+03
8.144000000000000000e+03
8.320000000000000000e+03
8.480000000000000000e+03
8.384000000000000000e+03
8.256000000000000000e+03
9.136000000000000000e+03
9.456000000000000000e+03
9.232000000000000000e+03
8.864000000000000000e+03
8.288000000000000000e+03
8.112000000000000000e+03
9.136000000000000000e+03
9.520000000000000000e+03
9.680000000000000000e+03
9.488000000000000000e+03
9.296000000000000000e+03
8.864000000000000000e+03
8.400000000000000000e+03
9.552000000000000000e+03
1.016000000000000000e+04
1.024000000000000000e+04
1.049600000000000000e+04
1.064000000000000000e+04
9.680000000000000000e+03
9.584000000000000000e+03
9.584000000000000000e+03
9.648000000000000000e+03
9.744000000000000000e+03
1.016000000000000000e+04
1.139200000000000000e+04
1.180800000000000000e+04
1.177600000000000000e+04
1.086400000000000000e+04
1.212800000000000000e+04
1.280000000000000000e+04
1.238400000000000000e+04
1.225600000000000000e+04
1.332800000000000000e+04
1.318400000000000000e+04
1.296000000000000000e+04
1.275200000000000000e+04
1.275200000000000000e+04
1.323200000000000000e+04
1.352000000000000000e+04
1.305600000000000000e+04
1.280000000000000000e+04
1.200000000000000000e+04
1.208000000000000000e+04
1.230400000000000000e+04
1.243200000000000000e+04
1.089600000000000000e+04
1.000000000000000000e+04
1.020800000000000000e+04
1.028800000000000000e+04
1.024000000000000000e+04
1.008000000000000000e+04
8.704000000000000000e+03
8.368000000000000000e+03
8.496000000000000000e+03
8.480000000000000000e+03
6.784000000000000000e+03
6.496000000000000000e+03
6.288000000000000000e+03
6.320000000000000000e+03
6.512000000000000000e+03
7.360000000000000000e+03
6.272000000000000000e+03
6.976000000000000000e+03
7.024000000000000000e+03
6.944000000000000000e+03
6.768000000000000000e+03
6.320000000000000000e+03
7.216000000000000000e+03
7.600000000000000000e+03
6.672000000000000000e+03
6.496000000000000000e+03
6.368000000000000000e+03
6.304000000000000000e+03
6.304000000000000000e+03
6.432000000000000000e+03
7.392000000000000000e+03
6.352000000000000000e+03
6.320000000000000000e+03
6.336000000000000000e+03
6.400000000000000000e+03
6.864000000000000000e+03
7.456000000000000000e+03
6.464000000000000000e+03
6.160000000000000000e+03
6.048000000000000000e+03
6.096000000000000000e+03
7.776000000000000000e+03
7.600000000000000000e+03
7.344000000000000000e+03
7.168000000000000000e+03
6.896000000000000000e+03
7.600000000000000000e+03
8.048000000000000000e+03
8.064000000000000000e+03
7.536000000000000000e+03
7.152000000000000000e+03
6.672000000000000000e+03
6.416000000000000000e+03
6.304000000000000000e+03
6.336000000000000000e+03
7.776000000000000000e+03
8.016000000000000000e+03
8.080000000000000000e+03
8.000000000000000000e+03
7.808000000000000000e+03
6.976000000000000000e+03
6.704000000000000000e+03
6.976000000000000000e+03
7.104000000000000000e+03
6.560000000000000000e+03
6.560000000000000000e+03
7.584000000000000000e+03
7.984000000000000000e+03
8.144000000000000000e+03
7.904000000000000000e+03
7.680000000000000000e+03
6.912000000000000000e+03
6.864000000000000000e+03
7.008000000000000000e+03
8.032000000000000000e+03
7.376000000000000000e+03
7.168000000000000000e+03
7.296000000000000000e+03
7.856000000000000000e+03
8.208000000000000000e+03
8.496000000000000000e+03
8.528000000000000000e+03
8.464000000000000000e+03
8.208000000000000000e+03
7.008000000000000000e+03
7.472000000000000000e+03
7.440000000000000000e+03
7.360000000000000000e+03
8.256000000000000000e+03
8.448000000000000000e+03
8.544000000000000000e+03
8.480000000000000000e+03
8.192000000000000000e+03
7.952000000000000000e+03
8.448000000000000000e+03
8.208000000000000000e+03
7.968000000000000000e+03
7.600000000000000000e+03
7.376000000000000000e+03
7.056000000000000000e+03
7.936000000000000000e+03
8.320000000000000000e+03
8.560000000000000000e+03
8.512000000000000000e+03
8.320000000000000000e+03
8.032000000000000000e+03
8.304000000000000000e+03
8.096000000000000000e+03
7.744000000000000000e+03
7.600000000000000000e+03
7.552000000000000000e+03
7.536000000000000000e+03
7.824000000000000000e+03
8.448000000000000000e+03
8.160000000000000000e+03
7.936000000000000000e+03
7.712000000000000000e+03
7.616000000000000000e+03
7.552000000000000000e+03
8.304000000000000000e+03
8.288000000000000000e+03
7.216000000000000000e+03
7.328000000000000000e+03
7.616000000000000000e+03
8.176000000000000000e+03
8.560000000000000000e+03
8.912000000000000000e+03
8.304000000000000000e+03
7.600000000000000000e+03
8.272000000000000000e+03
7.856000000000000000e+03
7.680000000000000000e+03
7.600000000000000000e+03
7.568000000000000000e+03
7.648000000000000000e+03
7.904000000000000000e+03
7.792000000000000000e+03
7.696000000000000000e+03
7.648000000000000000e+03
7.680000000000000000e+03
8.480000000000000000e+03
8.848000000000000000e+03
8.640000000000000000e+03
8.448000000000000000e+03
8.416000000000000000e+03
8.448000000000000000e+03
9.216000000000000000e+03
8.400000000000000000e+03
8.064000000000000000e+03
8.064000000000000000e+03
8.880000000000000000e+03
9.120000000000000000e+03
9.296000000000000000e+03
9.264000000000000000e+03
8.352000000000000000e+03
8.224000000000000000e+03
8.064000000000000000e+03
